10.0000	151.0000
10.0371	157.0000
10.0741	160.0000
10.1112	193.0000
10.1482	153.0000
10.1853	147.0000
10.2223	162.0000
10.2594	158.0000
10.2964	147.0000
10.3335	161.0000
10.3705	171.0000
10.4076	173.0000
10.4446	172.0000
10.4817	167.0000
10.5187	152.0000
10.5558	155.0000
10.5928	166.0000
10.6299	159.0000
10.6669	168.0000
10.7040	138.0000
10.7410	148.0000
10.7781	158.0000
10.8151	141.0000
10.8522	167.0000
10.8892	127.0000
10.9263	142.0000
10.9633	164.0000
11.0004	165.0000
11.0374	132.0000
11.0745	145.0000
11.1115	154.0000
11.1486	161.0000
11.1856	156.0000
11.2227	145.0000
11.2597	157.0000
11.2968	118.0000
11.3338	142.0000
11.3709	156.0000
11.4079	154.0000
11.4450	139.0000
11.4820	156.0000
11.5191	136.0000
11.5561	143.0000
11.5932	144.0000
11.6302	137.0000
11.6673	142.0000
11.7043	137.0000
11.7414	151.0000
11.7784	130.0000
11.8155	134.0000
11.8525	146.0000
11.8896	137.0000
11.9266	133.0000
11.9637	137.0000
12.0007	145.0000
12.0378	142.0000
12.0748	116.0000
12.1119	143.0000
12.1489	136.0000
12.1860	118.0000
12.2230	112.0000
12.2601	140.0000
12.2971	140.0000
12.3342	135.0000
12.3712	131.0000
12.4083	127.0000
12.4453	118.0000
12.4824	130.0000
12.5194	140.0000
12.5565	113.0000
12.5935	113.0000
12.6306	130.0000
12.6676	122.0000
12.7047	126.0000
12.7417	132.0000
12.7788	119.0000
12.8158	126.0000
12.8529	127.0000
12.8899	120.0000
12.9270	127.0000
12.9640	125.0000
13.0011	120.0000
13.0381	124.0000
13.0752	107.0000
13.1122	138.0000
13.1493	158.0000
13.1863	122.0000
13.2234	139.0000
13.2604	108.0000
13.2975	129.0000
13.3345	123.0000
13.3716	123.0000
13.4086	129.0000
13.4457	125.0000
13.4827	112.0000
13.5198	109.0000
13.5568	125.0000
13.5939	111.0000
13.6309	108.0000
13.6680	121.0000
13.7050	96.0000
13.7421	109.0000
13.7791	102.0000
13.8162	114.0000
13.8532	111.0000
13.8903	124.0000
13.9273	131.0000
13.9644	104.0000
14.0014	116.0000
14.0385	110.0000
14.0755	103.0000
14.1126	117.0000
14.1496	113.0000
14.1867	109.0000
14.2237	112.0000
14.2608	108.0000
14.2978	97.0000
14.3349	94.0000
14.3719	111.0000
14.4090	96.0000
14.4460	102.0000
14.4831	109.0000
14.5201	133.0000
14.5572	93.0000
14.5942	110.0000
14.6313	97.0000
14.6683	127.0000
14.7054	103.0000
14.7424	120.0000
14.7795	119.0000
14.8165	113.0000
14.8536	96.0000
14.8906	134.0000
14.9277	100.0000
14.9647	113.0000
15.0018	100.0000
15.0388	103.0000
15.0759	110.0000
15.1129	98.0000
15.1500	103.0000
15.1870	97.0000
15.2241	109.0000
15.2611	94.0000
15.2982	112.0000
15.3352	108.0000
15.3723	100.0000
15.4093	129.0000
15.4464	92.0000
15.4834	118.0000
15.5205	105.0000
15.5575	100.0000
15.5946	102.0000
15.6316	93.0000
15.6687	106.0000
15.7057	115.0000
15.7428	131.0000
15.7798	115.0000
15.8169	101.0000
15.8539	112.0000
15.8910	111.0000
15.9280	107.0000
15.9651	117.0000
16.0021	113.0000
16.0392	113.0000
16.0762	119.0000
16.1133	113.0000
16.1503	89.0000
16.1874	107.0000
16.2244	104.0000
16.2615	80.0000
16.2985	94.0000
16.3356	98.0000
16.3726	114.0000
16.4097	107.0000
16.4467	102.0000
16.4838	127.0000
16.5208	90.0000
16.5579	95.0000
16.5949	93.0000
16.6320	110.0000
16.6690	95.0000
16.7061	105.0000
16.7431	118.0000
16.7802	82.0000
16.8172	102.0000
16.8543	77.0000
16.8913	102.0000
16.9284	96.0000
16.9654	90.0000
17.0025	104.0000
17.0395	95.0000
17.0766	104.0000
17.1136	106.0000
17.1507	101.0000
17.1877	102.0000
17.2248	92.0000
17.2618	104.0000
17.2989	105.0000
17.3359	90.0000
17.3730	101.0000
17.4100	101.0000
17.4471	95.0000
17.4841	93.0000
17.5212	109.0000
17.5582	96.0000
17.5953	105.0000
17.6323	98.0000
17.6694	82.0000
17.7064	97.0000
17.7435	88.0000
17.7805	109.0000
17.8176	106.0000
17.8546	94.0000
17.8917	107.0000
17.9287	101.0000
17.9658	97.0000
18.0028	128.0000
18.0399	100.0000
18.0769	107.0000
18.1140	105.0000
18.1510	107.0000
18.1881	114.0000
18.2251	107.0000
18.2622	143.0000
18.2992	128.0000
18.3363	141.0000
18.3733	145.0000
18.4104	206.0000
18.4474	244.0000
18.4845	465.0000
18.5215	1048.0000
18.5586	2456.0000
18.5956	4249.0000
18.6327	3863.0000
18.6697	2551.0000
18.7068	1302.0000
18.7438	822.0000
18.7809	557.0000
18.8179	383.0000
18.8550	281.0000
18.8920	222.0000
18.9291	168.0000
18.9661	127.0000
19.0032	140.0000
19.0402	135.0000
19.0773	123.0000
19.1143	109.0000
19.1514	104.0000
19.1884	95.0000
19.2255	106.0000
19.2625	139.0000
19.2996	109.0000
19.3366	92.0000
19.3737	116.0000
19.4107	104.0000
19.4478	98.0000
19.4848	92.0000
19.5219	91.0000
19.5589	104.0000
19.5960	90.0000
19.6330	91.0000
19.6701	100.0000
19.7071	70.0000
19.7442	83.0000
19.7812	88.0000
19.8183	82.0000
19.8553	93.0000
19.8924	78.0000
19.9294	92.0000
19.9665	90.0000
20.0035	98.0000
20.0406	77.0000
20.0776	71.0000
20.1147	97.0000
20.1517	97.0000
20.1888	100.0000
20.2258	67.0000
20.2629	83.0000
20.2999	81.0000
20.3370	94.0000
20.3740	116.0000
20.4111	130.0000
20.4481	171.0000
20.4852	292.0000
20.5222	419.0000
20.5593	463.0000
20.5963	406.0000
20.6334	295.0000
20.6704	260.0000
20.7075	207.0000
20.7445	192.0000
20.7816	196.0000
20.8186	188.0000
20.8557	175.0000
20.8927	190.0000
20.9298	158.0000
20.9668	162.0000
21.0039	188.0000
21.0409	169.0000
21.0780	171.0000
21.1150	188.0000
21.1521	173.0000
21.1891	174.0000
21.2262	220.0000
21.2632	211.0000
21.3003	205.0000
21.3373	214.0000
21.3744	199.0000
21.4114	196.0000
21.4485	190.0000
21.4855	200.0000
21.5226	209.0000
21.5596	180.0000
21.5967	193.0000
21.6337	197.0000
21.6708	160.0000
21.7078	164.0000
21.7449	163.0000
21.7819	157.0000
21.8190	160.0000
21.8560	124.0000
21.8931	133.0000
21.9301	120.0000
21.9672	127.0000
22.0042	124.0000
22.0413	117.0000
22.0783	113.0000
22.1154	130.0000
22.1524	120.0000
22.1895	103.0000
22.2265	97.0000
22.2636	102.0000
22.3006	96.0000
22.3377	108.0000
22.3747	101.0000
22.4118	101.0000
22.4488	115.0000
22.4859	109.0000
22.5229	127.0000
22.5600	99.0000
22.5970	107.0000
22.6341	116.0000
22.6711	115.0000
22.7082	99.0000
22.7452	96.0000
22.7823	101.0000
22.8193	112.0000
22.8564	108.0000
22.8934	107.0000
22.9305	108.0000
22.9675	109.0000
23.0046	98.0000
23.0416	88.0000
23.0787	111.0000
23.1157	90.0000
23.1528	96.0000
23.1898	114.0000
23.2269	129.0000
23.2640	138.0000
23.3010	106.0000
23.3381	103.0000
23.3751	106.0000
23.4122	109.0000
23.4492	106.0000
23.4863	116.0000
23.5233	101.0000
23.5604	108.0000
23.5974	94.0000
23.6345	107.0000
23.6715	107.0000
23.7086	122.0000
23.7456	119.0000
23.7827	98.0000
23.8197	102.0000
23.8568	115.0000
23.8938	103.0000
23.9309	124.0000
23.9679	120.0000
24.0050	129.0000
24.0420	118.0000
24.0791	123.0000
24.1161	117.0000
24.1532	110.0000
24.1902	125.0000
24.2273	102.0000
24.2643	102.0000
24.3014	101.0000
24.3384	105.0000
24.3755	101.0000
24.4125	87.0000
24.4496	93.0000
24.4866	95.0000
24.5237	112.0000
24.5607	99.0000
24.5978	114.0000
24.6348	109.0000
24.6719	85.0000
24.7089	77.0000
24.7460	79.0000
24.7830	93.0000
24.8201	82.0000
24.8571	88.0000
24.8942	81.0000
24.9312	76.0000
24.9683	94.0000
25.0053	96.0000
25.0424	83.0000
25.0794	81.0000
25.1165	76.0000
25.1535	79.0000
25.1906	89.0000
25.2276	89.0000
25.2647	73.0000
25.3017	65.0000
25.3388	102.0000
25.3758	83.0000
25.4129	79.0000
25.4499	73.0000
25.4870	70.0000
25.5240	71.0000
25.5611	67.0000
25.5981	88.0000
25.6352	88.0000
25.6722	75.0000
25.7093	82.0000
25.7463	80.0000
25.7834	71.0000
25.8204	81.0000
25.8575	77.0000
25.8945	66.0000
25.9316	81.0000
25.9686	85.0000
26.0057	86.0000
26.0427	78.0000
26.0798	71.0000
26.1168	72.0000
26.1539	73.0000
26.1909	65.0000
26.2280	84.0000
26.2650	67.0000
26.3021	76.0000
26.3391	65.0000
26.3762	56.0000
26.4132	85.0000
26.4503	77.0000
26.4873	68.0000
26.5244	65.0000
26.5614	77.0000
26.5985	73.0000
26.6355	69.0000
26.6726	75.0000
26.7096	59.0000
26.7467	73.0000
26.7837	77.0000
26.8208	89.0000
26.8578	75.0000
26.8949	95.0000
26.9319	78.0000
26.9690	88.0000
27.0060	97.0000
27.0431	84.0000
27.0801	84.0000
27.1172	79.0000
27.1542	68.0000
27.1913	80.0000
27.2283	73.0000
27.2654	78.0000
27.3024	73.0000
27.3395	76.0000
27.3765	79.0000
27.4136	78.0000
27.4506	94.0000
27.4877	72.0000
27.5247	73.0000
27.5618	68.0000
27.5988	77.0000
27.6359	77.0000
27.6729	83.0000
27.7100	73.0000
27.7470	70.0000
27.7841	91.0000
27.8211	97.0000
27.8582	76.0000
27.8952	91.0000
27.9323	68.0000
27.9693	78.0000
28.0064	82.0000
28.0434	75.0000
28.0805	73.0000
28.1175	80.0000
28.1546	70.0000
28.1916	82.0000
28.2287	74.0000
28.2657	70.0000
28.3028	75.0000
28.3398	74.0000
28.3769	67.0000
28.4139	82.0000
28.4510	59.0000
28.4880	65.0000
28.5251	88.0000
28.5621	70.0000
28.5992	87.0000
28.6362	50.0000
28.6733	73.0000
28.7103	80.0000
28.7474	68.0000
28.7844	63.0000
28.8215	70.0000
28.8585	69.0000
28.8956	65.0000
28.9326	50.0000
28.9697	75.0000
29.0067	58.0000
29.0438	62.0000
29.0808	65.0000
29.1179	73.0000
29.1549	72.0000
29.1920	66.0000
29.2290	57.0000
29.2661	43.0000
29.3031	59.0000
29.3402	60.0000
29.3772	64.0000
29.4143	67.0000
29.4513	65.0000
29.4884	73.0000
29.5254	58.0000
29.5625	62.0000
29.5995	53.0000
29.6366	53.0000
29.6736	58.0000
29.7107	54.0000
29.7477	53.0000
29.7848	59.0000
29.8218	56.0000
29.8589	49.0000
29.8959	56.0000
29.9330	65.0000
29.9700	58.0000
30.0071	53.0000
30.0441	59.0000
30.0812	61.0000
30.1182	59.0000
30.1553	47.0000
30.1923	54.0000
30.2294	67.0000
30.2664	57.0000
30.3035	62.0000
30.3405	48.0000
30.3776	54.0000
30.4146	58.0000
30.4517	64.0000
30.4887	52.0000
30.5258	79.0000
30.5628	60.0000
30.5999	74.0000
30.6369	74.0000
30.6740	72.0000
30.7110	56.0000
30.7481	65.0000
30.7851	52.0000
30.8222	81.0000
30.8592	58.0000
30.8963	65.0000
30.9333	56.0000
30.9704	52.0000
31.0074	58.0000
31.0445	47.0000
31.0815	55.0000
31.1186	42.0000
31.1556	51.0000
31.1927	61.0000
31.2297	62.0000
31.2668	71.0000
31.3038	60.0000
31.3409	76.0000
31.3779	59.0000
31.4150	57.0000
31.4520	59.0000
31.4891	66.0000
31.5261	70.0000
31.5632	49.0000
31.6002	55.0000
31.6373	68.0000
31.6743	69.0000
31.7114	62.0000
31.7484	63.0000
31.7855	67.0000
31.8225	71.0000
31.8596	52.0000
31.8966	59.0000
31.9337	52.0000
31.9707	61.0000
32.0078	65.0000
32.0448	53.0000
32.0819	66.0000
32.1189	50.0000
32.1560	58.0000
32.1930	48.0000
32.2301	62.0000
32.2671	62.0000
32.3042	62.0000
32.3412	60.0000
32.3783	55.0000
32.4153	54.0000
32.4524	58.0000
32.4894	59.0000
32.5265	57.0000
32.5635	55.0000
32.6006	74.0000
32.6376	65.0000
32.6747	54.0000
32.7117	59.0000
32.7488	69.0000
32.7858	66.0000
32.8229	83.0000
32.8599	60.0000
32.8970	67.0000
32.9340	46.0000
32.9711	46.0000
33.0081	46.0000
33.0452	65.0000
33.0822	62.0000
33.1193	59.0000
33.1563	62.0000
33.1934	60.0000
33.2304	54.0000
33.2675	47.0000
33.3045	54.0000
33.3416	54.0000
33.3786	58.0000
33.4157	62.0000
33.4527	58.0000
33.4898	51.0000
33.5268	66.0000
33.5639	68.0000
33.6009	49.0000
33.6380	59.0000
33.6750	54.0000
33.7121	48.0000
33.7491	69.0000
33.7862	59.0000
33.8232	61.0000
33.8603	61.0000
33.8973	55.0000
33.9344	47.0000
33.9714	53.0000
34.0085	56.0000
34.0455	62.0000
34.0826	49.0000
34.1196	46.0000
34.1567	61.0000
34.1937	63.0000
34.2308	54.0000
34.2678	36.0000
34.3049	47.0000
34.3419	54.0000
34.3790	68.0000
34.4160	47.0000
34.4531	48.0000
34.4901	58.0000
34.5272	62.0000
34.5642	34.0000
34.6013	59.0000
34.6383	45.0000
34.6754	59.0000
34.7124	60.0000
34.7495	62.0000
34.7865	48.0000
34.8236	56.0000
34.8606	62.0000
34.8977	64.0000
34.9347	42.0000
34.9718	67.0000
35.0088	65.0000
35.0459	64.0000
35.0829	54.0000
35.1200	63.0000
35.1570	47.0000
35.1941	54.0000
35.2311	49.0000
35.2682	52.0000
35.3052	66.0000
35.3423	52.0000
35.3793	54.0000
35.4164	40.0000
35.4534	61.0000
35.4905	50.0000
35.5275	55.0000
35.5646	66.0000
35.6016	68.0000
35.6387	79.0000
35.6757	66.0000
35.7128	92.0000
35.7498	85.0000
35.7869	116.0000
35.8239	135.0000
35.8610	164.0000
35.8980	234.0000
35.9351	328.0000
35.9721	437.0000
36.0092	424.0000
36.0462	448.0000
36.0833	497.0000
36.1203	473.0000
36.1574	405.0000
36.1944	402.0000
36.2315	360.0000
36.2685	323.0000
36.3056	330.0000
36.3426	462.0000
36.3797	676.0000
36.4167	860.0000
36.4538	844.0000
36.4909	779.0000
36.5279	650.0000
36.5650	472.0000
36.6020	264.0000
36.6391	202.0000
36.6761	143.0000
36.7132	113.0000
36.7502	107.0000
36.7873	74.0000
36.8243	83.0000
36.8614	76.0000
36.8984	53.0000
36.9355	55.0000
36.9725	52.0000
37.0096	58.0000
37.0466	50.0000
37.0837	54.0000
37.1207	64.0000
37.1578	57.0000
37.1948	59.0000
37.2319	62.0000
37.2689	63.0000
37.3060	63.0000
37.3430	54.0000
37.3801	55.0000
37.4171	76.0000
37.4542	60.0000
37.4912	68.0000
37.5283	64.0000
37.5653	79.0000
37.6024	108.0000
37.6394	134.0000
37.6765	133.0000
37.7135	131.0000
37.7506	130.0000
37.7876	111.0000
37.8247	94.0000
37.8617	80.0000
37.8988	100.0000
37.9358	97.0000
37.9729	92.0000
38.0099	90.0000
38.0470	95.0000
38.0840	118.0000
38.1211	121.0000
38.1581	103.0000
38.1952	78.0000
38.2322	64.0000
38.2693	71.0000
38.3063	65.0000
38.3434	47.0000
38.3804	65.0000
38.4175	66.0000
38.4545	66.0000
38.4916	47.0000
38.5286	42.0000
38.5657	49.0000
38.6027	71.0000
38.6398	53.0000
38.6768	53.0000
38.7139	49.0000
38.7509	55.0000
38.7880	41.0000
38.8250	46.0000
38.8621	59.0000
38.8991	52.0000
38.9362	54.0000
38.9732	58.0000
39.0103	58.0000
39.0473	42.0000
39.0844	56.0000
39.1214	46.0000
39.1585	40.0000
39.1955	43.0000
39.2326	53.0000
39.2696	69.0000
39.3067	64.0000
39.3437	59.0000
39.3808	51.0000
39.4178	44.0000
39.4549	42.0000
39.4919	36.0000
39.5290	55.0000
39.5660	39.0000
39.6031	47.0000
39.6401	49.0000
39.6772	52.0000
39.7142	50.0000
39.7513	50.0000
39.7883	41.0000
39.8254	52.0000
39.8624	48.0000
39.8995	46.0000
39.9365	48.0000
39.9736	56.0000
40.0106	48.0000
40.0477	48.0000
40.0847	51.0000
40.1218	50.0000
40.1588	25.0000
40.1959	43.0000
40.2329	40.0000
40.2700	43.0000
40.3070	39.0000
40.3441	51.0000
40.3811	45.0000
40.4182	61.0000
40.4552	48.0000
40.4923	61.0000
40.5293	39.0000
40.5664	50.0000
40.6034	42.0000
40.6405	49.0000
40.6775	42.0000
40.7146	62.0000
40.7516	42.0000
40.7887	43.0000
40.8257	39.0000
40.8628	44.0000
40.8998	48.0000
40.9369	41.0000
40.9739	48.0000
41.0110	44.0000
41.0480	52.0000
41.0851	48.0000
41.1221	41.0000
41.1592	43.0000
41.1962	50.0000
41.2333	53.0000
41.2703	37.0000
41.3074	43.0000
41.3444	45.0000
41.3815	34.0000
41.4185	57.0000
41.4556	47.0000
41.4926	51.0000
41.5297	55.0000
41.5667	56.0000
41.6038	52.0000
41.6408	63.0000
41.6779	66.0000
41.7149	72.0000
41.7520	59.0000
41.7890	70.0000
41.8261	57.0000
41.8631	50.0000
41.9002	57.0000
41.9372	54.0000
41.9743	67.0000
42.0113	51.0000
42.0484	57.0000
42.0854	64.0000
42.1225	60.0000
42.1595	55.0000
42.1966	58.0000
42.2336	61.0000
42.2707	55.0000
42.3077	40.0000
42.3448	57.0000
42.3818	58.0000
42.4189	63.0000
42.4559	56.0000
42.4930	52.0000
42.5300	60.0000
42.5671	47.0000
42.6041	56.0000
42.6412	59.0000
42.6782	68.0000
42.7153	62.0000
42.7523	56.0000
42.7894	55.0000
42.8264	71.0000
42.8635	64.0000
42.9005	52.0000
42.9376	61.0000
42.9746	76.0000
43.0117	52.0000
43.0487	56.0000
43.0858	60.0000
43.1228	63.0000
43.1599	75.0000
43.1969	74.0000
43.2340	83.0000
43.2710	89.0000
43.3081	98.0000
43.3451	96.0000
43.3822	99.0000
43.4192	125.0000
43.4563	145.0000
43.4933	152.0000
43.5304	158.0000
43.5674	199.0000
43.6045	256.0000
43.6415	293.0000
43.6786	338.0000
43.7156	418.0000
43.7527	493.0000
43.7897	534.0000
43.8268	626.0000
43.8638	612.0000
43.9009	692.0000
43.9379	822.0000
43.9750	1009.0000
44.0120	1212.0000
44.0491	1680.0000
44.0861	2174.0000
44.1232	2369.0000
44.1602	2261.0000
44.1973	2062.0000
44.2343	1608.0000
44.2714	1268.0000
44.3084	942.0000
44.3455	602.0000
44.3825	401.0000
44.4196	306.0000
44.4566	217.0000
44.4937	179.0000
44.5307	126.0000
44.5678	109.0000
44.6048	94.0000
44.6419	90.0000
44.6789	78.0000
44.7160	85.0000
44.7530	67.0000
44.7901	103.0000
44.8271	84.0000
44.8642	65.0000
44.9012	73.0000
44.9383	73.0000
44.9753	84.0000
45.0124	65.0000
45.0494	46.0000
45.0865	63.0000
45.1235	57.0000
45.1606	45.0000
45.1976	55.0000
45.2347	61.0000
45.2717	52.0000
45.3088	36.0000
45.3458	54.0000
45.3829	63.0000
45.4199	42.0000
45.4570	51.0000
45.4940	54.0000
45.5311	60.0000
45.5681	63.0000
45.6052	53.0000
45.6422	62.0000
45.6793	51.0000
45.7163	54.0000
45.7534	58.0000
45.7904	61.0000
45.8275	57.0000
45.8645	49.0000
45.9016	47.0000
45.9386	47.0000
45.9757	51.0000
46.0127	55.0000
46.0498	43.0000
46.0868	59.0000
46.1239	41.0000
46.1609	62.0000
46.1980	53.0000
46.2350	53.0000
46.2721	39.0000
46.3091	51.0000
46.3462	39.0000
46.3832	48.0000
46.4203	44.0000
46.4573	49.0000
46.4944	57.0000
46.5314	53.0000
46.5685	47.0000
46.6055	49.0000
46.6426	51.0000
46.6796	55.0000
46.7167	51.0000
46.7537	42.0000
46.7908	66.0000
46.8278	47.0000
46.8649	49.0000
46.9019	55.0000
46.9390	53.0000
46.9760	54.0000
47.0131	65.0000
47.0501	68.0000
47.0872	53.0000
47.1242	32.0000
47.1613	47.0000
47.1983	43.0000
47.2354	55.0000
47.2724	51.0000
47.3095	55.0000
47.3465	53.0000
47.3836	46.0000
47.4206	41.0000
47.4577	46.0000
47.4947	50.0000
47.5318	45.0000
47.5688	67.0000
47.6059	37.0000
47.6429	51.0000
47.6800	65.0000
47.7170	68.0000
47.7541	81.0000
47.7911	88.0000
47.8282	93.0000
47.8652	78.0000
47.9023	89.0000
47.9393	99.0000
47.9764	126.0000
48.0134	131.0000
48.0505	134.0000
48.0875	121.0000
48.1246	144.0000
48.1616	183.0000
48.1987	237.0000
48.2357	276.0000
48.2728	259.0000
48.3098	193.0000
48.3469	196.0000
48.3839	196.0000
48.4210	142.0000
48.4580	117.0000
48.4951	79.0000
48.5321	77.0000
48.5692	61.0000
48.6062	67.0000
48.6433	69.0000
48.6803	55.0000
48.7174	65.0000
48.7544	49.0000
48.7915	48.0000
48.8285	57.0000
48.8656	66.0000
48.9026	57.0000
48.9397	61.0000
48.9767	42.0000
49.0138	72.0000
49.0508	43.0000
49.0879	49.0000
49.1249	59.0000
49.1620	51.0000
49.1990	47.0000
49.2361	45.0000
49.2731	38.0000
49.3102	48.0000
49.3472	48.0000
49.3843	50.0000
49.4213	60.0000
49.4584	49.0000
49.4954	46.0000
49.5325	54.0000
49.5695	47.0000
49.6066	43.0000
49.6436	47.0000
49.6807	57.0000
49.7178	44.0000
49.7548	51.0000
49.7919	51.0000
49.8289	53.0000
49.8660	55.0000
49.9030	52.0000
49.9401	51.0000
49.9771	53.0000
50.0142	48.0000
50.0512	53.0000
50.0883	56.0000
50.1253	59.0000
50.1624	31.0000
50.1994	45.0000
50.2365	36.0000
50.2735	45.0000
50.3106	54.0000
50.3476	38.0000
50.3847	57.0000
50.4217	39.0000
50.4588	49.0000
50.4958	42.0000
50.5329	48.0000
50.5699	46.0000
50.6070	50.0000
50.6440	51.0000
50.6811	38.0000
50.7181	45.0000
50.7552	53.0000
50.7922	42.0000
50.8293	52.0000
50.8663	51.0000
50.9034	39.0000
50.9404	59.0000
50.9775	35.0000
51.0145	48.0000
51.0516	50.0000
51.0886	52.0000
51.1257	60.0000
51.1627	50.0000
51.1998	44.0000
51.2368	56.0000
51.2739	41.0000
51.3109	51.0000
51.3480	43.0000
51.3850	40.0000
51.4221	54.0000
51.4591	43.0000
51.4962	33.0000
51.5332	47.0000
51.5703	42.0000
51.6073	41.0000
51.6444	47.0000
51.6814	43.0000
51.7185	56.0000
51.7555	50.0000
51.7926	33.0000
51.8296	45.0000
51.8667	45.0000
51.9037	45.0000
51.9408	57.0000
51.9778	50.0000
52.0149	48.0000
52.0519	59.0000
52.0890	41.0000
52.1260	58.0000
52.1631	44.0000
52.2001	47.0000
52.2372	41.0000
52.2742	52.0000
52.3113	45.0000
52.3483	56.0000
52.3854	45.0000
52.4224	55.0000
52.4595	67.0000
52.4965	45.0000
52.5336	63.0000
52.5706	52.0000
52.6077	50.0000
52.6447	42.0000
52.6818	68.0000
52.7188	50.0000
52.7559	60.0000
52.7929	53.0000
52.8300	39.0000
52.8670	50.0000
52.9041	63.0000
52.9411	59.0000
52.9782	51.0000
53.0152	52.0000
53.0523	68.0000
53.0893	50.0000
53.1264	45.0000
53.1634	45.0000
53.2005	45.0000
53.2375	54.0000
53.2746	57.0000
53.3116	49.0000
53.3487	63.0000
53.3857	57.0000
53.4228	53.0000
53.4598	51.0000
53.4969	57.0000
53.5339	67.0000
53.5710	53.0000
53.6080	47.0000
53.6451	48.0000
53.6821	51.0000
53.7192	46.0000
53.7562	44.0000
53.7933	50.0000
53.8303	54.0000
53.8674	50.0000
53.9044	37.0000
53.9415	52.0000
53.9785	47.0000
54.0156	45.0000
54.0526	44.0000
54.0897	54.0000
54.1267	53.0000
54.1638	54.0000
54.2008	60.0000
54.2379	43.0000
54.2749	47.0000
54.3120	49.0000
54.3490	49.0000
54.3861	47.0000
54.4231	74.0000
54.4602	39.0000
54.4972	53.0000
54.5343	64.0000
54.5713	48.0000
54.6084	54.0000
54.6454	43.0000
54.6825	43.0000
54.7195	55.0000
54.7566	63.0000
54.7936	35.0000
54.8307	58.0000
54.8677	50.0000
54.9048	52.0000
54.9418	50.0000
54.9789	53.0000
55.0159	57.0000
55.0530	64.0000
55.0900	60.0000
55.1271	58.0000
55.1641	67.0000
55.2012	39.0000
55.2382	45.0000
55.2753	40.0000
55.3123	48.0000
55.3494	59.0000
55.3864	54.0000
55.4235	62.0000
55.4605	55.0000
55.4976	70.0000
55.5346	46.0000
55.5717	49.0000
55.6087	58.0000
55.6458	58.0000
55.6828	65.0000
55.7199	54.0000
55.7569	60.0000
55.7940	60.0000
55.8310	51.0000
55.8681	55.0000
55.9051	60.0000
55.9422	62.0000
55.9792	60.0000
56.0163	65.0000
56.0533	79.0000
56.0904	84.0000
56.1274	69.0000
56.1645	76.0000
56.2015	84.0000
56.2386	93.0000
56.2756	86.0000
56.3127	80.0000
56.3497	94.0000
56.3868	89.0000
56.4238	87.0000
56.4609	88.0000
56.4979	61.0000
56.5350	78.0000
56.5720	77.0000
56.6091	88.0000
56.6461	70.0000
56.6832	75.0000
56.7202	77.0000
56.7573	88.0000
56.7943	78.0000
56.8314	83.0000
56.8684	48.0000
56.9055	66.0000
56.9425	84.0000
56.9796	82.0000
57.0166	79.0000
57.0537	75.0000
57.0907	63.0000
57.1278	71.0000
57.1648	89.0000
57.2019	82.0000
57.2389	81.0000
57.2760	70.0000
57.3130	81.0000
57.3501	86.0000
57.3871	68.0000
57.4242	72.0000
57.4612	78.0000
57.4983	94.0000
57.5353	109.0000
57.5724	107.0000
57.6094	94.0000
57.6465	117.0000
57.6835	111.0000
57.7206	119.0000
57.7576	144.0000
57.7947	158.0000
57.8317	199.0000
57.8688	224.0000
57.9058	225.0000
57.9429	249.0000
57.9799	221.0000
58.0170	238.0000
58.0540	265.0000
58.0911	300.0000
58.1281	331.0000
58.1652	374.0000
58.2022	333.0000
58.2393	281.0000
58.2763	244.0000
58.3134	264.0000
58.3504	241.0000
58.3875	182.0000
58.4245	159.0000
58.4616	107.0000
58.4986	113.0000
58.5357	101.0000
58.5727	104.0000
58.6098	96.0000
58.6468	98.0000
58.6839	82.0000
58.7209	73.0000
58.7580	76.0000
58.7950	71.0000
58.8321	49.0000
58.8691	70.0000
58.9062	67.0000
58.9432	62.0000
58.9803	65.0000
59.0173	63.0000
59.0544	65.0000
59.0914	65.0000
59.1285	64.0000
59.1655	71.0000
59.2026	79.0000
59.2396	65.0000
59.2767	68.0000
59.3137	66.0000
59.3508	62.0000
59.3878	65.0000
59.4249	74.0000
59.4619	63.0000
59.4990	72.0000
59.5360	72.0000
59.5731	61.0000
59.6101	79.0000
59.6472	64.0000
59.6842	56.0000
59.7213	55.0000
59.7583	59.0000
59.7954	60.0000
59.8324	71.0000
59.8695	66.0000
59.9065	66.0000
59.9436	53.0000
59.9806	51.0000
60.0177	68.0000
60.0547	61.0000
60.0918	62.0000
60.1288	70.0000
60.1659	58.0000
60.2029	57.0000
60.2400	62.0000
60.2770	52.0000
60.3141	54.0000
60.3511	59.0000
60.3882	57.0000
60.4252	67.0000
60.4623	44.0000
60.4993	64.0000
60.5364	64.0000
60.5734	63.0000
60.6105	59.0000
60.6475	60.0000
60.6846	62.0000
60.7216	55.0000
60.7587	58.0000
60.7957	60.0000
60.8328	52.0000
60.8698	47.0000
60.9069	70.0000
60.9439	58.0000
60.9810	57.0000
61.0180	67.0000
61.0551	56.0000
61.0921	61.0000
61.1292	72.0000
61.1662	62.0000
61.2033	59.0000
61.2403	67.0000
61.2774	52.0000
61.3144	71.0000
61.3515	68.0000
61.3885	59.0000
61.4256	62.0000
61.4626	67.0000
61.4997	62.0000
61.5367	52.0000
61.5738	72.0000
61.6108	60.0000
61.6479	54.0000
61.6849	66.0000
61.7220	49.0000
61.7590	62.0000
61.7961	76.0000
61.8331	56.0000
61.8702	56.0000
61.9072	57.0000
61.9443	56.0000
61.9813	58.0000
62.0184	66.0000
62.0554	48.0000
62.0925	52.0000
62.1295	66.0000
62.1666	66.0000
62.2036	63.0000
62.2407	69.0000
62.2777	56.0000
62.3148	65.0000
62.3518	66.0000
62.3889	66.0000
62.4259	56.0000
62.4630	75.0000
62.5000	46.0000
62.5371	63.0000
62.5741	60.0000
62.6112	57.0000
62.6482	63.0000
62.6853	71.0000
62.7223	59.0000
62.7594	68.0000
62.7964	55.0000
62.8335	59.0000
62.8705	78.0000
62.9076	61.0000
62.9447	62.0000
62.9817	69.0000
63.0188	65.0000
63.0558	82.0000
63.0929	62.0000
63.1299	71.0000
63.1670	71.0000
63.2040	76.0000
63.2411	85.0000
63.2781	92.0000
63.3152	104.0000
63.3522	117.0000
63.3893	125.0000
63.4263	149.0000
63.4634	173.0000
63.5004	213.0000
63.5375	248.0000
63.5745	266.0000
63.6116	273.0000
63.6486	319.0000
63.6857	400.0000
63.7227	448.0000
63.7598	495.0000
63.7968	550.0000
63.8339	585.0000
63.8709	556.0000
63.9080	511.0000
63.9450	466.0000
63.9821	397.0000
64.0191	424.0000
64.0562	328.0000
64.0932	266.0000
64.1303	252.0000
64.1673	197.0000
64.2044	229.0000
64.2414	251.0000
64.2785	264.0000
64.3155	345.0000
64.3526	431.0000
64.3896	501.0000
64.4267	495.0000
64.4637	384.0000
64.5008	380.0000
64.5378	329.0000
64.5749	344.0000
64.6119	284.0000
64.6490	253.0000
64.6860	208.0000
64.7231	151.0000
64.7601	124.0000
64.7972	108.0000
64.8342	109.0000
64.8713	101.0000
64.9083	77.0000
64.9454	70.0000
64.9824	77.0000
65.0195	64.0000
65.0565	73.0000
65.0936	71.0000
65.1306	72.0000
65.1677	64.0000
65.2047	68.0000
65.2418	61.0000
65.2788	66.0000
65.3159	63.0000
65.3529	59.0000
65.3900	67.0000
65.4270	63.0000
65.4641	67.0000
65.5011	74.0000
65.5382	65.0000
65.5752	54.0000
65.6123	65.0000
65.6493	58.0000
65.6864	55.0000
65.7234	61.0000
65.7605	61.0000
65.7975	71.0000
65.8346	71.0000
65.8716	72.0000
65.9087	39.0000
65.9457	77.0000
65.9828	50.0000
66.0198	52.0000
66.0569	56.0000
66.0939	62.0000
66.1310	69.0000
66.1680	79.0000
66.2051	57.0000
66.2421	62.0000
66.2792	72.0000
66.3162	43.0000
66.3533	62.0000
66.3903	57.0000
66.4274	60.0000
66.4644	83.0000
66.5015	69.0000
66.5385	69.0000
66.5756	62.0000
66.6126	78.0000
66.6497	89.0000
66.6867	90.0000
66.7238	91.0000
66.7608	101.0000
66.7979	96.0000
66.8349	120.0000
66.8720	128.0000
66.9090	131.0000
66.9461	129.0000
66.9831	107.0000
67.0202	104.0000
67.0572	101.0000
67.0943	130.0000
67.1313	108.0000
67.1684	112.0000
67.2054	80.0000
67.2425	89.0000
67.2795	105.0000
67.3166	118.0000
67.3536	100.0000
67.3907	110.0000
67.4277	107.0000
67.4648	107.0000
67.5018	121.0000
67.5389	140.0000
67.5759	175.0000
67.6130	228.0000
67.6500	185.0000
67.6871	237.0000
67.7241	249.0000
67.7612	195.0000
67.7982	200.0000
67.8353	185.0000
67.8723	161.0000
67.9094	147.0000
67.9464	112.0000
67.9835	112.0000
68.0205	95.0000
68.0576	60.0000
68.0946	67.0000
68.1317	62.0000
68.1687	81.0000
68.2058	63.0000
68.2428	66.0000
68.2799	53.0000
68.3169	53.0000
68.3540	60.0000
68.3910	53.0000
68.4281	58.0000
68.4651	65.0000
68.5022	53.0000
68.5392	55.0000
68.5763	57.0000
68.6133	63.0000
68.6504	62.0000
68.6874	56.0000
68.7245	70.0000
68.7615	47.0000
68.7986	56.0000
68.8356	55.0000
68.8727	68.0000
68.9097	61.0000
68.9468	57.0000
68.9838	61.0000
69.0209	47.0000
69.0579	63.0000
69.0950	62.0000
69.1320	65.0000
69.1691	52.0000
69.2061	55.0000
69.2432	66.0000
69.2802	38.0000
69.3173	60.0000
69.3543	66.0000
69.3914	56.0000
69.4284	50.0000
69.4655	67.0000
69.5025	55.0000
69.5396	53.0000
69.5766	54.0000
69.6137	56.0000
69.6507	56.0000
69.6878	58.0000
69.7248	59.0000
69.7619	51.0000
69.7989	53.0000
69.8360	60.0000
69.8730	51.0000
69.9101	56.0000
69.9471	59.0000
69.9842	67.0000
70.0212	49.0000
70.0583	51.0000
70.0953	45.0000
70.1324	60.0000
70.1694	49.0000
70.2065	61.0000
70.2435	62.0000
70.2806	39.0000
70.3176	61.0000
70.3547	42.0000
70.3917	41.0000
70.4288	63.0000
70.4658	50.0000
70.5029	35.0000
70.5399	61.0000
70.5770	42.0000
70.6140	57.0000
70.6511	48.0000
70.6881	62.0000
70.7252	55.0000
70.7622	54.0000
70.7993	60.0000
70.8363	64.0000
70.8734	56.0000
70.9104	56.0000
70.9475	54.0000
70.9845	46.0000
71.0216	44.0000
71.0586	50.0000
71.0957	48.0000
71.1327	49.0000
71.1698	55.0000
71.2068	50.0000
71.2439	46.0000
71.2809	47.0000
71.3180	46.0000
71.3550	55.0000
71.3921	62.0000
71.4291	62.0000
71.4662	49.0000
71.5032	57.0000
71.5403	65.0000
71.5773	55.0000
71.6144	48.0000
71.6514	46.0000
71.6885	42.0000
71.7255	50.0000
71.7626	44.0000
71.7996	55.0000
71.8367	51.0000
71.8737	54.0000
71.9108	56.0000
71.9478	65.0000
71.9849	53.0000
72.0219	54.0000
72.0590	51.0000
72.0960	39.0000
72.1331	48.0000
72.1701	45.0000
72.2072	50.0000
72.2442	39.0000
72.2813	56.0000
72.3183	47.0000
72.3554	50.0000
72.3924	48.0000
72.4295	37.0000
72.4665	61.0000
72.5036	40.0000
72.5406	50.0000
72.5777	43.0000
72.6147	55.0000
72.6518	52.0000
72.6888	47.0000
72.7259	55.0000
72.7629	49.0000
72.8000	46.0000
72.8370	39.0000
72.8741	53.0000
72.9111	46.0000
72.9482	41.0000
72.9852	36.0000
73.0223	59.0000
73.0593	39.0000
73.0964	54.0000
73.1334	46.0000
73.1705	44.0000
73.2075	49.0000
73.2446	58.0000
73.2816	42.0000
73.3187	38.0000
73.3557	52.0000
73.3928	54.0000
73.4298	46.0000
73.4669	57.0000
73.5039	50.0000
73.5410	41.0000
73.5780	46.0000
73.6151	49.0000
73.6521	49.0000
73.6892	51.0000
73.7262	43.0000
73.7633	50.0000
73.8003	58.0000
73.8374	50.0000
73.8744	47.0000
73.9115	53.0000
73.9485	43.0000
73.9856	46.0000
74.0226	47.0000
74.0597	44.0000
74.0967	38.0000
74.1338	54.0000
74.1708	47.0000
74.2079	49.0000
74.2449	48.0000
74.2820	45.0000
74.3190	56.0000
74.3561	45.0000
74.3931	51.0000
74.4302	35.0000
74.4672	45.0000
74.5043	53.0000
74.5413	57.0000
74.5784	47.0000
74.6154	47.0000
74.6525	48.0000
74.6895	40.0000
74.7266	53.0000
74.7636	45.0000
74.8007	55.0000
74.8377	49.0000
74.8748	44.0000
74.9118	45.0000
74.9489	47.0000
74.9859	42.0000
75.0230	51.0000
75.0600	53.0000
75.0971	59.0000
75.1341	52.0000
75.1712	49.0000
75.2082	50.0000
75.2453	58.0000
75.2823	62.0000
75.3194	72.0000
75.3564	68.0000
75.3935	71.0000
75.4305	55.0000
75.4676	66.0000
75.5046	70.0000
75.5417	66.0000
75.5787	49.0000
75.6158	43.0000
75.6528	60.0000
75.6899	66.0000
75.7269	49.0000
75.7640	71.0000
75.8010	54.0000
75.8381	58.0000
75.8751	61.0000
75.9122	51.0000
75.9492	58.0000
75.9863	76.0000
76.0233	46.0000
76.0604	74.0000
76.0974	60.0000
76.1345	68.0000
76.1716	89.0000
76.2086	81.0000
76.2457	81.0000
76.2827	77.0000
76.3198	92.0000
76.3568	107.0000
76.3939	81.0000
76.4309	77.0000
76.4680	83.0000
76.5050	95.0000
76.5421	95.0000
76.5791	128.0000
76.6162	87.0000
76.6532	67.0000
76.6903	69.0000
76.7273	77.0000
76.7644	73.0000
76.8014	80.0000
76.8385	61.0000
76.8755	69.0000
76.9126	60.0000
76.9496	61.0000
76.9867	91.0000
77.0237	83.0000
77.0608	61.0000
77.0978	53.0000
77.1349	76.0000
77.1719	61.0000
77.2090	77.0000
77.2460	72.0000
77.2831	76.0000
77.3201	75.0000
77.3572	62.0000
77.3942	62.0000
77.4313	66.0000
77.4683	46.0000
77.5054	47.0000
77.5424	45.0000
77.5795	50.0000
77.6165	57.0000
77.6536	66.0000
77.6906	39.0000
77.7277	37.0000
77.7647	47.0000
77.8018	41.0000
77.8388	43.0000
77.8759	46.0000
77.9129	37.0000
77.9500	36.0000
77.9870	45.0000
78.0241	51.0000
78.0611	36.0000
78.0982	29.0000
78.1352	47.0000
78.1723	45.0000
78.2093	41.0000
78.2464	45.0000
78.2834	44.0000
78.3205	47.0000
78.3575	38.0000
78.3946	42.0000
78.4316	38.0000
78.4687	42.0000
78.5057	35.0000
78.5428	31.0000
78.5798	39.0000
78.6169	37.0000
78.6539	33.0000
78.6910	45.0000
78.7280	37.0000
78.7651	45.0000
78.8021	34.0000
78.8392	44.0000
78.8762	40.0000
78.9133	40.0000
78.9503	49.0000
78.9874	43.0000
79.0244	46.0000
79.0615	36.0000
79.0985	32.0000
79.1356	37.0000
79.1726	45.0000
79.2097	55.0000
79.2467	26.0000
79.2838	41.0000
79.3208	31.0000
79.3579	31.0000
79.3949	48.0000
79.4320	32.0000
79.4690	30.0000
79.5061	54.0000
79.5431	44.0000
79.5802	53.0000
79.6172	59.0000
79.6543	38.0000
79.6913	57.0000
79.7284	42.0000
79.7654	50.0000
79.8025	55.0000
79.8395	61.0000
79.8766	61.0000
79.9136	55.0000
79.9507	65.0000
79.9877	58.0000
